#mu         density         sigma_xx         sigma_xy         alpha_xx         alpha_xy         beta_xx         beta_xy
-4.00000000  0.00000000   1.50236911e-04 -1.28453211e-05   1.96557977e-05 -3.47889319e-06   4.07149652e-04 -3.69789128e-05
-3.96000000  0.00000000   1.84566343e-04 -1.95169827e-05   2.66889636e-05 -5.83195342e-06   5.02897532e-04 -5.71685186e-05
-3.92000000  0.00000000   2.31846623e-04 -3.09549660e-05   3.74405117e-05 -1.03193590e-05   6.36323971e-04 -9.27855722e-05
-3.88000000  0.00000000   2.99314507e-04 -5.17449629e-05   5.46474699e-05 -1.95016010e-05   8.29719897e-04 -1.60021891e-04
-3.84000000  0.00000000   3.99847806e-04 -9.23297663e-05   8.37449775e-05 -3.99591902e-05   1.12403531e-03 -2.98084014e-04
-3.80000000  0.00000000   5.57851459e-04 -1.78818554e-04   1.36288744e-04 -9.04151444e-05   1.59989140e-03 -6.12546556e-04
-3.76000000  0.00000000   8.22979442e-04 -3.83842390e-04   2.38545525e-04 -2.29951749e-04   2.42780083e-03 -1.42024316e-03
-3.72000000  0.00000000   1.30366537e-03 -9.32341188e-04   4.52494109e-04 -6.58101621e-04   3.98665763e-03 -3.73972431e-03
-3.68000000  0.00000022   2.24652225e-03 -2.56583290e-03   9.14434877e-04 -2.00756903e-03   7.08982262e-03 -1.06592931e-02
-3.64000000  0.00001207   4.17599164e-03 -7.52307449e-03   1.82836912e-03 -5.62539451e-03   1.31313597e-02 -2.90200039e-02
-3.60000000  0.00046109   7.89695924e-03 -2.03013145e-02   3.20191468e-03 -1.19843914e-02   2.35051954e-02 -6.61893062e-02
-3.56000000  0.00268144   1.38659957e-02 -4.37521153e-02   4.56019553e-03 -1.81194687e-02   3.86848137e-02 -1.23993662e-01
-3.52000000  0.00536464   2.15817509e-02 -7.43741744e-02   5.43394705e-03 -2.11723469e-02   5.80962920e-02 -1.99222060e-01
-3.48000000  0.00808856   3.02097530e-02 -1.07302180e-01   5.84123085e-03 -2.17934299e-02   8.02665642e-02 -2.83458282e-01
-3.44000000  0.01084269   3.92104727e-02 -1.40149317e-01   5.99345460e-03 -2.14291578e-02   1.03753998e-01 -3.69316205e-01
-3.40000000  0.01362766   4.83301166e-02 -1.72113798e-01   6.03056917e-03 -2.07469788e-02   1.27721220e-01 -4.53477490e-01
-3.36000000  0.01644437   5.74566515e-02 -2.02937277e-01   6.01618803e-03 -1.99566376e-02   1.51777529e-01 -5.34812636e-01
-3.32000000  0.01929381   6.65384419e-02 -2.32521285e-01   5.97733813e-03 -1.91199719e-02   1.75746201e-01 -6.12929691e-01
-3.28000000  0.02217693   7.55498901e-02 -2.60815665e-01   5.92596230e-03 -1.82561566e-02   1.99543037e-01 -6.87657272e-01
-3.24000000  0.02509483   8.44773522e-02 -2.87785800e-01   5.86771633e-03 -1.73714173e-02   2.23124868e-01 -7.58891423e-01
-3.20000000  0.02804865   9.33130854e-02 -3.13402072e-01   5.80547987e-03 -1.64676161e-02   2.46467971e-01 -8.26549381e-01
-3.16000000  0.03103957   1.02052472e-01 -3.37636048e-01   5.74082408e-03 -1.55449564e-02   2.69558554e-01 -8.90554168e-01
-3.12000000  0.03406883   1.10692665e-01 -3.60458915e-01   5.67466546e-03 -1.46029181e-02   2.92388271e-01 -9.50828773e-01
-3.08000000  0.03713779   1.19231887e-01 -3.81840739e-01   5.60757644e-03 -1.36406076e-02   3.14951987e-01 -1.00729359e+00
-3.04000000  0.04024785   1.27669057e-01 -4.01750030e-01   5.53994190e-03 -1.26568945e-02   3.37246602e-01 -1.05986504e+00
-3.00000000  0.04340053   1.36003583e-01 -4.20153442e-01   5.47204286e-03 -1.16504637e-02   3.59270415e-01 -1.10845471e+00
-2.96000000  0.04659754   1.44235244e-01 -4.37015508e-01   5.40410374e-03 -1.06198309e-02   3.81022773e-01 -1.15296858e+00
-2.92000000  0.04984064   1.52364132e-01 -4.52298386e-01   5.33632099e-03 -9.56333892e-03   4.02503890e-01 -1.19330633e+00
-2.88000000  0.05313173   1.60390628e-01 -4.65961590e-01   5.26888174e-03 -8.47914407e-03   4.23714763e-01 -1.22936063e+00
-2.84000000  0.05647274   1.68315392e-01 -4.77961692e-01   5.20197751e-03 -7.36519462e-03   4.44657161e-01 -1.26101632e+00
-2.80000000  0.05986577   1.76139386e-01 -4.88251986e-01   5.13581558e-03 -6.21920238e-03   4.65333661e-01 -1.28814955e+00
-2.76000000  0.06331319   1.83863902e-01 -4.96782111e-01   5.07063002e-03 -5.03860714e-03   4.85747734e-01 -1.31062670e+00
-2.72000000  0.06681771   1.91490613e-01 -5.03497599e-01   5.00669390e-03 -3.82053291e-03   5.05903882e-01 -1.32830326e+00
-2.68000000  0.07038217   1.99021641e-01 -5.08339370e-01   4.94433420e-03 -2.56173416e-03   5.25807824e-01 -1.34102237e+00
-2.64000000  0.07400958   2.06459651e-01 -5.11243118e-01   4.88395158e-03 -1.25852963e-03   5.45466758e-01 -1.34861329e+00
-2.60000000  0.07770335   2.13807987e-01 -5.12138598e-01   4.82604791e-03  9.32794395e-05   5.64889724e-01 -1.35088938e+00
-2.56000000  0.08146721   2.21070841e-01 -5.10948769e-01   4.77126645e-03  1.49851105e-03   5.84088104e-01 -1.34764586e+00
-2.52000000  0.08530496   2.28253517e-01 -5.07588773e-01   4.72045303e-03  2.96272916e-03   6.03076339e-01 -1.33865704e+00
-2.48000000  0.08922116   2.35362792e-01 -5.01964690e-01   4.67475267e-03  4.49240155e-03   6.21872984e-01 -1.32367297e+00
-2.44000000  0.09322187   2.42407468e-01 -4.93972037e-01   4.63576934e-03  6.09509381e-03   6.40502313e-01 -1.30241542e+00
-2.40000000  0.09731245   2.49399239e-01 -4.83493937e-01   4.60584238e-03  7.77969804e-03   6.58996881e-01 -1.27457297e+00
-2.36000000  0.10149836   2.56354098e-01 -4.70398933e-01   4.58855030e-03  9.55666931e-03   6.77401813e-01 -1.23979529e+00
-2.32000000  0.10578938   2.63294781e-01 -4.54538461e-01   4.58968333e-03  1.14381583e-02   6.95782438e-01 -1.19768688e+00
-2.28000000  0.11019305   2.70255236e-01 -4.35744341e-01   4.61924375e-03  1.34376329e-02   7.14238780e-01 -1.14780208e+00
-2.24000000  0.11471870   2.77289408e-01 -4.13827679e-01   4.69585178e-03  1.55675433e-02   7.32935192e-01 -1.08964845e+00
-2.20000000  0.11938242   2.84489786e-01 -3.88584459e-01   4.85713514e-03  1.78296538e-02   7.52165691e-01 -1.02272519e+00
-2.16000000  0.12419323   2.92029613e-01 -3.59827710e-01   5.18550810e-03  2.01773837e-02   7.72506986e-01 -9.46697476e-01
-2.12000000  0.12917640   3.00264331e-01 -3.27522302e-01   5.87085011e-03  2.23758557e-02   7.95175673e-01 -8.62052143e-01
-2.08000000  0.13434934   3.09969923e-01 -2.92283681e-01   7.32662137e-03  2.35942116e-02   8.22711837e-01 -7.71949769e-01
-2.04000000  0.13977375   3.22765541e-01 -2.56714010e-01   1.01810197e-02  2.21155030e-02   8.59464819e-01 -6.84090513e-01
-2.00000000  0.14654811   3.41161380e-01 -2.26056053e-01   1.45287860e-02  1.80768464e-02   9.10018176e-01 -6.04255614e-01
-1.96000000  0.15812212   3.66800063e-01 -2.01232251e-01   1.90987511e-02  1.73616211e-02   9.76614181e-01 -5.25812526e-01
-1.92000000  0.17157836   3.98712173e-01 -1.71363837e-01   2.26185122e-02  2.55078789e-02   1.05876885e+00 -4.30065962e-01
-1.88000000  0.18620540   4.35044859e-01 -1.22051395e-01   2.51099001e-02  4.22249134e-02   1.15333439e+00 -2.87093961e-01
-1.84000000  0.20274364   4.74559183e-01 -4.24278892e-02   2.67389404e-02  6.31717390e-02   1.25588123e+00 -7.62946556e-02
-1.80000000  0.22341839   5.15646585e-01  6.76963722e-02   2.68192383e-02  7.73274442e-02   1.36088092e+00  1.90499460e-01
-1.76000000  0.24382635   5.55264501e-01  1.87732597e-01   2.48918940e-02  7.58265919e-02   1.46246909e+00  4.81327996e-01
-1.72000000  0.25975146   5.90771517e-01  2.95264562e-01   2.19244814e-02  6.54358188e-02   1.55575110e+00  7.60806194e-01
-1.68000000  0.27357046   6.21690369e-01  3.86157591e-01   1.91007883e-02  5.57015482e-02   1.63827567e+00  1.00583685e+00
-1.64000000  0.28612227   6.48723157e-01  4.64570382e-01   1.68048815e-02  4.87942490e-02   1.71064648e+00  1.21749655e+00
-1.60000000  0.29775360   6.72672045e-01  5.34328630e-01   1.49802179e-02  4.39188736e-02   1.77465030e+00  1.40460369e+00
-1.56000000  0.30868186   6.94151342e-01  5.97800569e-01   1.35009851e-02  4.02744716e-02   1.83192368e+00  1.57401450e+00
-1.52000000  0.31903102   7.13600041e-01  6.56424431e-01   1.22690334e-02  3.73959220e-02   1.88368828e+00  1.73001342e+00
-1.48000000  0.32888843   7.31335023e-01  7.11125633e-01   1.12179100e-02  3.50248367e-02   1.93082895e+00  1.87530491e+00
-1.44000000  0.33834191   7.47591709e-01  7.62538191e-01   1.03030957e-02  3.30102364e-02   1.97399865e+00  2.01169926e+00
-1.40000000  0.34743291   7.62550409e-01  8.11119782e-01   9.49408829e-03  3.12581279e-02   2.01369347e+00  2.14047964e+00
-1.36000000  0.35621100   7.76353074e-01  8.57214572e-01   8.76934400e-03  2.97065019e-02   2.05030120e+00  2.26259841e+00
-1.32000000  0.36469834   7.89114127e-01  9.01089689e-01   8.11318753e-03  2.83125136e-02   2.08413266e+00  2.37878792e+00
-1.28000000  0.37292992   8.00927662e-01  9.42957855e-01   7.51390248e-03  2.70453626e-02   2.11544227e+00  2.48962733e+00
-1.24000000  0.38093417   8.11872369e-01  9.82991919e-01   6.96252265e-03  2.58821533e-02   2.14444205e+00  2.59558490e+00
-1.20000000  0.38872244   8.22015023e-01  1.02133489e+00   6.45205422e-03  2.48054966e-02   2.17131143e+00  2.69704659e+00
-1.16000000  0.39630742   8.31413027e-01  1.05810701e+00   5.97694508e-03  2.38018927e-02   2.19620425e+00  2.79433598e+00
-1.12000000  0.40371342   8.40116246e-01  1.09341035e+00   5.53270752e-03  2.28605728e-02   2.21925388e+00  2.88772725e+00
-1.08000000  0.41096059   8.48168386e-01  1.12733206e+00   5.11565650e-03  2.19729284e-02   2.24057699e+00  2.97745449e+00
-1.04000000  0.41805325   8.55608098e-01  1.15994744e+00   4.72270761e-03  2.11322137e-02   2.26027646e+00  3.06372021e+00
-1.00000000  0.42499708   8.62469801e-01  1.19132262e+00   4.35120159e-03  2.03331130e-02   2.27844380e+00  3.14670184e+00
-0.96000000  0.43180311   8.68784260e-01  1.22151618e+00   3.99880515e-03  1.95713921e-02   2.29516091e+00  3.22655544e+00
-0.92000000  0.43847668   8.74579027e-01  1.25058083e+00   3.66353488e-03  1.88434495e-02   2.31050168e+00  3.30341854e+00
-0.88000000  0.44502557   8.79878911e-01  1.27856442e+00   3.34388504e-03  1.81453058e-02   2.32453345e+00  3.37741246e+00
-0.84000000  0.45146684   8.84706590e-01  1.30550930e+00   3.03894006e-03  1.74718074e-02   2.33731788e+00  3.44864420e+00
-0.80000000  0.45781176   8.89083380e-01  1.33145090e+00   2.74818675e-03  1.68174497e-02   2.34891112e+00  3.51721047e+00
-0.76000000  0.46405844   8.93029738e-01  1.35641796e+00   2.47079915e-03  1.61789835e-02   2.35936350e+00  3.58320314e+00
-0.72000000  0.47020156   8.96564719e-01  1.38043590e+00   2.20481345e-03  1.55578965e-02   2.36872003e+00  3.64671006e+00
-0.68000000  0.47623668   8.99704418e-01  1.40353268e+00   1.94738180e-03  1.49591747e-02   2.37702294e+00  3.70780773e+00
-0.64000000  0.48216574   9.02461173e-01  1.42574189e+00   1.69681583e-03  1.43846750e-02   2.38431516e+00  3.76655433e+00
-0.60000000  0.48801367   9.04845901e-01  1.44709571e+00   1.45476638e-03  1.38270764e-02   2.39063984e+00  3.82299700e+00
-0.56000000  0.49381702   9.06872780e-01  1.46761202e+00   1.22501395e-03  1.32750307e-02   2.39603361e+00  3.87719417e+00
-0.52000000  0.49957810   9.08560520e-01  1.48729476e+00   1.00819550e-03  1.27284289e-02   2.40052139e+00  3.92922535e+00
-0.48000000  0.50525868   9.09925689e-01  1.50615689e+00   7.98523545e-04  1.22026985e-02   2.40412449e+00  3.97915933e+00
-0.44000000  0.51082532   9.10974615e-01  1.52423815e+00   5.89298118e-04  1.17064249e-02   2.40687674e+00  4.02701044e+00
-0.40000000  0.51629503   9.11707479e-01  1.54157950e+00   3.82228567e-04  1.12175317e-02   2.40882253e+00  4.07276358e+00
-0.36000000  0.52171928   9.12133326e-01  1.55817541e+00   1.85740919e-04  1.07035900e-02   2.40999000e+00  4.11646870e+00
-0.32000000  0.52710724   9.12272932e-01  1.57398365e+00   1.16262057e-06  1.01745300e-02   2.41038065e+00  4.15825950e+00
-0.28000000  0.53242994   9.12139409e-01  1.58900794e+00  -1.81039791e-04  9.68548923e-03   2.41000641e+00  4.19821324e+00
-0.24000000  0.53768198   9.11727839e-01  1.60333474e+00  -3.64186521e-04  9.25930561e-03   2.40891796e+00  4.23624648e+00
-0.20000000  0.54290628   9.11039745e-01  1.61703445e+00  -5.36754239e-04  8.83681741e-03   2.40715612e+00  4.27227000e+00
-0.16000000  0.54809634   9.10101668e-01  1.63005787e+00  -6.95112890e-04  8.35453745e-03   2.40470012e+00  4.30640487e+00
-0.12000000  0.55317639   9.08930959e-01  1.64231452e+00  -8.58117581e-04  7.84704943e-03   2.40153439e+00  4.33886509e+00
-0.08000000  0.55815514   9.07504565e-01  1.65383454e+00  -1.03384910e-03  7.39997810e-03   2.39773562e+00  4.36964301e+00
-0.04000000  0.56315199   9.05809051e-01  1.66474157e+00  -1.19429820e-03  7.01403248e-03   2.39337862e+00  4.39854768e+00
 0.00000000  0.56820817   9.03893005e-01  1.67506649e+00  -1.32323899e-03  6.60501661e-03   2.38839770e+00  4.42556889e+00
 0.04000000  0.57315259   9.01797160e-01  1.68471793e+00  -1.45877979e-03  6.14133239e-03   2.38271753e+00  4.45092619e+00
 0.08000000  0.57790375   8.99472319e-01  1.69365332e+00  -1.62900100e-03  5.68599748e-03   2.37646102e+00  4.47472128e+00
 0.12000000  0.58266591   8.96871756e-01  1.70194786e+00  -1.78737096e-03  5.28602340e-03   2.36977172e+00  4.49683019e+00
 0.16000000  0.58756988   8.94067669e-01  1.70966900e+00  -1.89444661e-03  4.90678896e-03   2.36252639e+00  4.51717487e+00
 0.20000000  0.59239609   8.91133060e-01  1.71679487e+00  -2.00516039e-03  4.49839799e-03   2.35457287e+00  4.53584430e+00
 0.24000000  0.59697255   8.87992699e-01  1.72327608e+00  -2.16830681e-03  4.06567632e-03   2.34609538e+00  4.55294572e+00
 0.28000000  0.60155248   8.84572341e-01  1.72910922e+00  -2.32072867e-03  3.65302152e-03   2.33729774e+00  4.56850844e+00
 0.32000000  0.60631439   8.80971580e-01  1.73434743e+00  -2.40935442e-03  3.28179130e-03   2.32797897e+00  4.58247629e+00
 0.36000000  0.61099909   8.77276783e-01  1.73904264e+00  -2.50683764e-03  2.91345620e-03   2.31795048e+00  4.59476852e+00
 0.40000000  0.61541872   8.73380193e-01  1.74315959e+00  -2.66507009e-03  2.50414181e-03   2.30748293e+00  4.60546514e+00
 0.44000000  0.61987859   8.69210240e-01  1.74662665e+00  -2.80200178e-03  2.08988702e-03   2.29677223e+00  4.61475703e+00
 0.48000000  0.62451705   8.64899475e-01  1.74949371e+00  -2.87368580e-03  1.73138700e-03   2.28552224e+00  4.62257900e+00
 0.52000000  0.62903819   8.60510648e-01  1.75186717e+00  -2.97078324e-03  1.38802447e-03   2.27359833e+00  4.62870477e+00
 0.56000000  0.63331990   8.55905422e-01  1.75369288e+00  -3.12362926e-03  9.88534525e-04   2.26135480e+00  4.63327151e+00
 0.60000000  0.63770698   8.51054021e-01  1.75486221e+00  -3.23642138e-03  5.84309728e-04   2.24888166e+00  4.63656967e+00
 0.64000000  0.64222534   8.46108374e-01  1.75546394e+00  -3.29727716e-03  2.48402761e-04   2.23582358e+00  4.63842001e+00
 0.68000000  0.64657266   8.41073552e-01  1.75561402e+00  -3.40248923e-03 -8.60596679e-05   2.22218871e+00  4.63855945e+00
 0.72000000  0.65075469   8.35807447e-01  1.75520441e+00  -3.54350780e-03 -4.84686175e-04   2.20834431e+00  4.63727172e+00
 0.76000000  0.65508856   8.30344620e-01  1.75414718e+00  -3.62981552e-03 -8.64955175e-04   2.19421551e+00  4.63479990e+00
 0.80000000  0.65947637   8.24819994e-01  1.75258526e+00  -3.69001943e-03 -1.17809134e-03   2.17948539e+00  4.63081379e+00
 0.84000000  0.66366284   8.19175468e-01  1.75058257e+00  -3.80330877e-03 -1.51880923e-03   2.16432017e+00  4.62517682e+00
 0.88000000  0.66778635   8.13304573e-01  1.74798909e+00  -3.92449104e-03 -1.91237126e-03   2.14899537e+00  4.61828583e+00
 0.92000000  0.67206029   8.07293558e-01  1.74479137e+00  -3.99032628e-03 -2.25917034e-03   2.13330493e+00  4.61019367e+00
 0.96000000  0.67630913   8.01226564e-01  1.74114955e+00  -4.05762361e-03 -2.56078920e-03   2.11706028e+00  4.60052056e+00
 1.00000000  0.68037127   7.95010313e-01  1.73704201e+00  -4.17167779e-03 -2.91344433e-03   2.10051205e+00  4.58934619e+00
 1.04000000  0.68445602   7.88595449e-01  1.73232972e+00  -4.27014028e-03 -3.28988580e-03   2.08378823e+00  4.57703863e+00
 1.08000000  0.68865355   7.82083493e-01  1.72708036e+00  -4.32557000e-03 -3.60519505e-03   2.06664786e+00  4.56344411e+00
 1.12000000  0.69277123   7.75502276e-01  1.72141681e+00  -4.40058707e-03 -3.90788824e-03   2.04904412e+00  4.54827878e+00
 1.16000000  0.69674858   7.68760334e-01  1.71525167e+00  -4.50721250e-03 -4.26638803e-03   2.03121561e+00  4.53178523e+00
 1.20000000  0.70079127   7.61856149e-01  1.70849989e+00  -4.58683717e-03 -4.61759899e-03   2.01316942e+00  4.51419039e+00
 1.24000000  0.70490313   7.54876030e-01  1.70127234e+00  -4.63941566e-03 -4.91172037e-03   1.99470829e+00  4.49523610e+00
 1.28000000  0.70891261   7.47811541e-01  1.69363177e+00  -4.71726319e-03 -5.21966918e-03   1.97587315e+00  4.47479302e+00
 1.32000000  0.71282831   7.40593219e-01  1.68547006e+00  -4.81256072e-03 -5.57372845e-03   1.95684049e+00  4.45314759e+00
 1.36000000  0.71681862   7.33242417e-01  1.67675771e+00  -4.88024120e-03 -5.90102339e-03   1.93756271e+00  4.43038436e+00
 1.40000000  0.72084728   7.25821143e-01  1.66760749e+00  -4.93234965e-03 -6.18345472e-03   1.91790716e+00  4.40624925e+00
 1.44000000  0.72477436   7.18309555e-01  1.65803801e+00  -5.00717990e-03 -6.49194130e-03   1.89793856e+00  4.38072425e+00
 1.48000000  0.72863793   7.10660364e-01  1.64795145e+00  -5.09166066e-03 -6.83500204e-03   1.87777392e+00  4.35405979e+00
 1.52000000  0.73256712   7.02896622e-01  1.63734743e+00  -5.15336383e-03 -7.14587492e-03   1.85736407e+00  4.32626743e+00
 1.56000000  0.73651976   6.95061576e-01  1.62632211e+00  -5.20413320e-03 -7.42072961e-03   1.83662446e+00  4.29714471e+00
 1.60000000  0.74039077   6.87140125e-01  1.61488012e+00  -5.27175827e-03 -7.72121133e-03   1.81560509e+00  4.26670828e+00
 1.64000000  0.74420577   6.79099518e-01  1.60294252e+00  -5.34735040e-03 -8.05099818e-03   1.79438514e+00  4.23515248e+00
 1.68000000  0.74806362   6.70953446e-01  1.59050952e+00  -5.40697705e-03 -8.35419733e-03   1.77293862e+00  4.20248693e+00
 1.72000000  0.75195223   6.62733405e-01  1.57765749e+00  -5.45559127e-03 -8.62330443e-03   1.75120965e+00  4.16856499e+00
 1.76000000  0.75578774   6.54435903e-01  1.56440140e+00  -5.51366731e-03 -8.90731214e-03   1.72922030e+00  4.13338171e+00
 1.80000000  0.75955865   6.46038294e-01  1.55068425e+00  -5.58073869e-03 -9.22040001e-03   1.70702534e+00  4.09707562e+00
 1.84000000  0.76334590   6.37541648e-01  1.53648869e+00  -5.64014461e-03 -9.52242093e-03   1.68462634e+00  4.05969170e+00
 1.88000000  0.76716811   6.28966897e-01  1.52186527e+00  -5.68811702e-03 -9.79143042e-03   1.66199022e+00  4.02114425e+00
 1.92000000  0.77097645   6.20322009e-01  1.50684871e+00  -5.73679143e-03 -1.00556826e-02   1.63911446e+00  3.98139195e+00
 1.96000000  0.77472920   6.11596233e-01  1.49141432e+00  -5.79314182e-03 -1.03428355e-02   1.61602938e+00  3.94050539e+00
 2.00000000  0.77845404   6.02782119e-01  1.47553071e+00  -5.85040183e-03 -1.06395434e-02   1.59275370e+00  3.89855533e+00
 2.04000000  0.78220108   5.93887049e-01  1.45921041e+00  -5.90046523e-03 -1.09175188e-02   1.56927953e+00  3.85553004e+00
 2.08000000  0.78596517   5.84922176e-01  1.44248953e+00  -5.94470559e-03 -1.11743318e-02   1.54559682e+00  3.81138681e+00
 2.12000000  0.78971464   5.75889933e-01  1.42538199e+00  -5.98980887e-03 -1.14312287e-02   1.52171215e+00  3.76612866e+00
 2.16000000  0.79342437   5.66785785e-01  1.40787298e+00  -6.03843770e-03 -1.17018377e-02   1.49764093e+00  3.71980092e+00
 2.20000000  0.79711145   5.57607331e-01  1.38994822e+00  -6.08741367e-03 -1.19781405e-02   1.47339222e+00  3.67243908e+00
 2.24000000  0.80080337   5.48358016e-01  1.37161407e+00  -6.13287018e-03 -1.22446412e-02   1.44896641e+00  3.62404590e+00
 2.28000000  0.80450890   5.39043526e-01  1.35288989e+00  -6.17436159e-03 -1.24963702e-02   1.42436286e+00  3.57461228e+00
 2.32000000  0.80821475   5.29667330e-01  1.33378987e+00  -6.21414640e-03 -1.27406305e-02   1.39958543e+00  3.52414259e+00
 2.36000000  0.81190532   5.20229960e-01  1.31431616e+00  -6.25423480e-03 -1.29865442e-02   1.37464127e+00  3.47265700e+00
 2.40000000  0.81557342   5.10731103e-01  1.29446504e+00  -6.29481022e-03 -1.32366533e-02   1.34953714e+00  3.42017845e+00
